Wavelength (nm),Intensity (a.u.),
220,2.257133007,
220.9299927,2.257964373,
222.0299988,2.261280775,
222.9600067,2.264343023,
224.0599976,2.267907381,
225,2.27387023,
225.9299927,2.280822754,
227.0299988,2.28729105,
227.9600067,2.293548107,
229.0599976,2.300107718,
230,2.307802916,
230.9299927,2.315518141,
232.0299988,2.322497845,
232.9600067,2.329223156,
234.0599976,2.336050034,
235,2.342805386,
235.9299927,2.35073781,
237.0299988,2.356897831,
237.9600067,2.360691786,
239.0599976,2.36235261,
240,2.362784386,
240.9299927,2.363405943,
242.0299988,2.365180969,
242.9600067,2.369144201,
244.0599976,2.375665903,
245,2.383251905,
245.9299927,2.389220476,
247.0299988,2.395992756,
247.9600067,2.402497768,
249.0599976,2.408053398,
250,2.412944078,
250.9299927,2.413439274,
252.0299988,2.412825823,
252.9600067,2.412022591,
254.0599976,2.413197517,
255,2.416657448,
255.9299927,2.422786951,
257.0299988,2.427179337,
257.9599915,2.430893183,
259.0599976,2.434819937,
260,2.439310074,
260.9299927,2.443040848,
262.0299988,2.445401669,
262.9599915,2.446935892,
264.0599976,2.444993019,
265,2.440217733,
265.9299927,2.433817625,
267.0299988,2.427925825,
267.9599915,2.418186426,
269.0599976,2.406160831,
270,2.393434525,
271.0700073,2.377057314,
272,2.360049248,
273.0700073,2.342868328,
274,2.325910091,
275.0700073,2.311001778,
276,2.297314882,
277.0700073,2.284381151,
278,2.274503231,
279.0700073,2.267737389,
280,2.263750315,
280.9299927,2.260807037,
282.0299988,2.259344339,
282.9599915,2.258560419,
284.0599976,2.256841183,
285,2.256102085,
285.9299927,2.25652194,
287.0299988,2.254929543,
287.9599915,2.251621962,
289.0599976,2.246312857,
290,2.240310907,
290.9299927,2.230885983,
292.0299988,2.220887661,
292.9599915,2.211067438,
294.0599976,2.202743053,
295,2.196902275,
295.9299927,2.194760561,
297.0299988,2.196527004,
297.9599915,2.201093435,
299.0599976,2.207677841,
300,2.215962648,
301.0700073,2.223912239,
302,2.232538462,
303.0700073,2.239455938,
304,2.24604249,
305.0700073,2.250158548,
306,2.250843525,
307.0700073,2.247085333,
308,2.24124527,
309.0700073,2.233267069,
310,2.2245996,
310.9299927,2.214570284,
312.0299988,2.204692841,
312.9599915,2.19278121,
314.0599976,2.179831743,
315,2.165430784,
315.9299927,2.149731636,
317.0299988,2.132215261,
317.9599915,2.113377094,
319.0599976,2.094162226,
320,2.075506687,
321.0700073,2.058177471,
322,2.043028116,
323.0700073,2.028850794,
324,2.016415834,
325.0700073,2.00217104,
326,1.988764763,
327.0700073,1.97594142,
328,1.965800047,
329.0700073,1.957852125,
330,1.952500343,
331.0700073,1.949509144,
332,1.947983146,
333.0700073,1.946592569,
334,1.946179867,
335.0700073,1.944679737,
336,1.941998124,
337.0700073,1.939209342,
338,1.936819315,
339.0700073,1.935906887,
340,1.935930133,
341.0700073,1.93810308,
342,1.940617561,
343.0700073,1.94363296,
344,1.947621465,
345.0700073,1.950732112,
346,1.954557419,
347.0700073,1.957747817,
348,1.961807013,
349.0700073,1.965372562,
350,1.969041705,
351.0700073,1.971855283,
352,1.972872496,
353.0700073,1.971839428,
354,1.968881369,
355.0700073,1.962998986,
356,1.95829463,
357.0700073,1.955425262,
358,1.95534122,
359.0700073,1.958998442,
360,1.966815114,
361.0700073,1.97772038,
362,1.990863442,
363.0700073,2.005684137,
364,2.023597956,
365.0700073,2.041243076,
366,2.057281256,
367.0700073,2.071112633,
368,2.081290007,
369.0700073,2.087417364,
370,2.089583635,
371.0700073,2.087922096,
372,2.084378958,
373.0700073,2.079429626,
374,2.073148012,
375.0700073,2.067429781,
376,2.063816547,
377.0700073,2.060679913,
378,2.059004545,
379.0700073,2.058434486,
380,2.059055328,
381.0700073,2.060518265,
382,2.062351227,
383.0700073,2.064412594,
384,2.06703639,
385.0700073,2.068040609,
386,2.067471027,
387.0700073,2.06628108,
388,2.064603806,
389.0700073,2.064460039,
390,2.066682816,
391.0700073,2.071201801,
392,2.078749895,
393.0700073,2.087870121,
394,2.096947193,
395.0700073,2.106661797,
396,2.114834547,
397.0700073,2.122575283,
398,2.12971282,
399.0700073,2.13663435,
400,2.142872572,
401.0599976,2.148106337,
401.9599915,2.15131855,
403.0299988,2.152909994,
403.9299927,2.154335022,
405,2.155119419,
406.0599976,2.156214237,
406.9599915,2.158232689,
408.0299988,2.160354853,
408.9299927,2.162889004,
410,2.164799213,
411.0700073,2.165560246,
412,2.165005445,
413.0700073,2.162992954,
414,2.158260584,
415.0700073,2.151959658,
416,2.143900633,
417.0700073,2.13608861,
418,2.128462553,
419.0700073,2.122302055,
420,2.117273808,
421.0599976,2.112981796,
421.9599915,2.109539509,
423.0299988,2.106853485,
423.9299927,2.105775356,
425,2.104517221,
426.0599976,2.103956699,
426.9599915,2.10368371,
428.0299988,2.10274601,
428.9299927,2.100713491,
430,2.096686363,
431.0700073,2.090173006,
432,2.081379414,
433.0700073,2.071100712,
434,2.058451653,
435.0700073,2.044486523,
436,2.029353142,
437.0700073,2.013348579,
438,1.996808887,
439.0700073,1.980013609,
440,1.964112759,
441.0599976,1.948653102,
441.9599915,1.934204936,
443.0299988,1.921245456,
443.9299927,1.908913016,
445,1.898152232,
446.0599976,1.889054298,
446.9599915,1.881640196,
448.0299988,1.87504828,
448.9299927,1.867753029,
450,1.859999895,
451.0599976,1.851567864,
451.9599915,1.843343139,
453.0299988,1.835490346,
453.9299927,1.827636719,
455,1.820363164,
456.0599976,1.812599182,
456.9599915,1.804112315,
458.0299988,1.795777559,
458.9299927,1.787388563,
460,1.780401826,
461.0599976,1.773825884,
461.9599915,1.768041015,
463.0299988,1.763568521,
463.9299927,1.758935332,
465,1.755848289,
466.0599976,1.752998948,
466.9599915,1.75118649,
468.0299988,1.749292493,
468.9299927,1.746716142,
470,1.745233417,
471.0400085,1.744656324,
471.9400024,1.745580196,
472.980011,1.746921062,
474.019989,1.748490214,
475.0700073,1.749205351,
475.9700012,1.748559952,
477.0100098,1.747316003,
478.0499878,1.745271325,
478.9500122,1.743515849,
480,1.741941214,
481.0599976,1.739981055,
481.9599915,1.738761425,
483.0299988,1.737872362,
483.9299927,1.736986637,
485,1.737371325,
486.0599976,1.73819232,
486.9599915,1.741350889,
488.0299988,1.744547009,
488.9299927,1.748517632,
490,1.752622604,
491.0400085,1.757287502,
491.9400024,1.761681914,
492.980011,1.764401674,
494.019989,1.76585567,
495.0700073,1.76624155,
495.9700012,1.765616536,
497.0100098,1.764570951,
498.0499878,1.76286006,
498.9500122,1.760901451,
500,1.75783658,
501.0599976,1.754387617,
501.9599915,1.750835061,
503.0299988,1.746670127,
503.9299927,1.743324757,
505,1.740461469,
506.0599976,1.738099337,
506.9599915,1.737169504,
508.0299988,1.735280275,
508.9299927,1.733715892,
510,1.731520295,
511.0400085,1.730241656,
511.9400024,1.729197145,
512.9799805,1.728263974,
514.0200195,1.727906466,
515.0700073,1.727938652,
515.9699707,1.727705836,
517.0100098,1.727013946,
518.0499878,1.724875689,
518.9500122,1.721437812,
520,1.716858506,
521.039978,1.71148026,
521.9400024,1.705368996,
522.9799805,1.698792458,
524.0200195,1.693143487,
525.0700073,1.686975002,
525.9699707,1.680528045,
527.0100098,1.674182177,
528.0499878,1.667503119,
528.9500122,1.660747528,
530,1.654055476,
531.039978,1.647356749,
531.9400024,1.640745997,
532.9799805,1.633572459,
534.0200195,1.626505256,
535.0700073,1.618804097,
535.9699707,1.611027479,
537.0100098,1.602774739,
538.0499878,1.594262004,
538.9500122,1.586225986,
540,1.578505158,
541.0200195,1.571863532,
542.0499878,1.566079736,
542.9400024,1.561080337,
543.9699707,1.556609154,
545,1.551903844,
546.0200195,1.547209501,
547.0499878,1.543325663,
547.9400024,1.539772391,
548.9699707,1.536096334,
550,1.532603383,
551.039978,1.527464867,
551.9400024,1.521964073,
552.9799805,1.515430689,
554.0200195,1.508808136,
555.0700073,1.501865625,
555.9699707,1.494784355,
557.0100098,1.487680674,
558.0499878,1.480159283,
558.9500122,1.473013997,
560,1.466083765,
561.0200195,1.458840847,
562.0499878,1.451123595,
562.9400024,1.443008184,
563.9699707,1.434229016,
565,1.425101876,
566.0200195,1.415708184,
567.0499878,1.407050848,
567.9400024,1.398292661,
568.9699707,1.389460683,
570,1.381267071,
571.039978,1.372789264,
571.9400024,1.364873171,
572.9799805,1.356598735,
574.0200195,1.348546863,
575.0700073,1.340538025,
575.9699707,1.332682967,
577.0100098,1.325001001,
578.0499878,1.316641927,
578.9500122,1.308897257,
580,1.30063653,
581.0200195,1.291460633,
582.0499878,1.281921268,
582.9400024,1.272337198,
583.9699707,1.262433171,
585,1.252173901,
586.0200195,1.24164021,
587.0499878,1.231281161,
587.9400024,1.22053647,
588.9699707,1.209974051,
590,1.199817181,
591.0200195,1.190304399,
592.0499878,1.181133389,
592.9400024,1.172203183,
593.9699707,1.163007736,
595,1.153518915,
596.0200195,1.144143939,
597.0499878,1.134155869,
597.9400024,1.123532772,
598.9699707,1.113274574,
600,1.10231626,
